compactness,k2,Solar Masses,Radius (km)
0.003458770360211185,0.0002751041087224057,0.09540254257890474,40.82253179946815
0.023239477133559297,0.0283258120776567,0.21256676815361122,13.537258822963953
0.03868897207953681,0.06186421939529653,0.31557952020813795,12.072114217660442
0.05150990401804641,0.08378036090764607,0.40600056568739956,11.66534569753486
0.06258746306328242,0.09724650846500729,0.4869149557197897,11.51403330946092
0.07237864158265274,0.10533949653539777,0.5601757002222241,11.454484613145816
0.08118004812266433,0.11002104747659093,0.6271758250545951,11.43409301357207
0.08919723630823653,0.11248647655840045,0.6890142878768389,11.432429840469823
0.09656900375486864,0.11349773695353635,0.7464338481616642,11.439717221102295
0.10338892965646461,0.11351630517856583,0.7999664958796512,11.451423453515313
0.1097326210957279,0.11285351827219674,0.8500624178252938,11.465071788305389
0.11565907843367675,0.11170781000985487,0.8971092390817466,11.479614845819045
0.12123562924819951,0.11030428391116487,0.9414376403912493,11.49272467524015
0.1264865188936561,0.10866007664529105,0.9833292850111377,11.505790139106084
0.13145346105240832,0.10687987503453178,1.0230255894440854,11.517976478181952
0.13616566621370052,0.10501474661358558,1.0607338063479994,11.529235504427641
0.14064831189917468,0.10310324116622702,1.0966326502054524,11.539536453644372
0.14492302760079845,0.10117365003635302,1.1308773351609671,11.548878627132753
0.148999993077844,0.09921837116566354,1.1636033223022162,11.557939577269401
0.15291831650766427,0.09732905984672775,1.1949294483007,11.564968957766409
0.1566673027152789,0.09543471019462081,1.2249604134765193,11.571919478565468
0.16027180922209383,0.09358351821559235,1.2537888649409192,11.577878412423642
0.16373607265503343,0.09176116358431613,1.2814973518024502,11.583373473623634
0.16707528526749577,0.08998749777204773,1.3081595535560433,11.588046288014358
0.17029380294256827,0.08825335292071651,1.3338413717678361,11.592231755386656
0.17339240161582453,0.08654357143169468,1.3586021497695624,11.596420390519837
0.17640353596412542,0.0849227240008513,1.3824955754788062,11.598936724968711
0.17930726170115566,0.08332583865058757,1.4055702819083298,11.601560346682382
0.1821172072232103,0.08177297109167729,1.4278704169695673,11.603781154654301
0.1848401755503878,0.08026752130434357,1.4494362595742407,11.60551626713371
0.18747723379683207,0.07880105567213838,1.470304643408404,11.607013972707806
0.19003859016786426,0.07738536084483323,1.4905093267999705,11.607925536152422
0.19252276244472055,0.07600818948146502,1.5100813280225296,11.608603248226613
0.19493498043059537,0.07467197583474919,1.5290493099737827,11.608963018142934
0.19727784987093205,0.07337432833848785,1.5474397913977342,11.609062511412228
0.19955637448924837,0.07211776903410001,1.5652772749817137,11.60880163764325
0.20177054932238842,0.07089600371516498,1.582584457820329,11.608359125947992
0.20392600700824684,0.0697132468833935,1.599382538314851,11.607573704957867
0.20602104056509288,0.06856122885402749,1.6156913377556958,11.60669402173472
0.20806366265591608,0.06744846144197462,1.631529340464025,11.605406696507073
0.21005210958678575,0.06636730167485706,1.646913809349258,11.603941720137046
0.21197768263273506,0.06530029106034296,1.661860977314845,11.60289241715745
0.21386470804164529,0.0642814008946664,1.676386144946438,11.601032808263062
0.2157134081015627,0.06330609892547533,1.6905037471285824,11.59847024702484
0.217506362559355,0.062345066489612036,1.70422740850043,11.596242679532383
0.21925387168553173,0.061410546795132706,1.7175700056224739,11.593882419404522
0.2209479443328425,0.060488716371350414,1.7305437235268282,11.591892011275883
0.22261167795376793,0.05962446640398617,1.7431601379955282,11.589135969628563
0.2242434439755751,0.058764539631666134,1.7554302740682146,11.585787122962396
0.22582625026283482,0.05793144824284221,1.767364642589753,11.582797252261292
0.22737129339998838,0.05712190917568853,1.7789732716309605,11.5796519544888
0.22887928861457155,0.05633458375073621,1.7902657424085768,11.576378600278506
0.23034008721307211,0.05555516539949572,1.8012512272035393,11.573546960565478
0.23178885336923066,0.05482407230442257,1.8119385199221438,11.569447669741814
0.23319268341087157,0.05409969751473752,1.822336073700057,11.565789070337297
0.23455501438949752,0.05339802075378414,1.8324520178524186,11.562443009289227
0.23589075527548448,0.05269531614135368,1.842294164353573,11.558720730954631
0.23721035380591593,0.05204035025528082,1.8518700212495716,11.554165269243876
0.2384884539543264,0.051390327852771325,1.8611868316409026,11.550062341198574
0.23973680292934724,0.05075689594800629,1.8702516036970862,11.545880063677314
0.2409570761517237,0.05014043419759501,1.8790711211062658,11.541579536291112
0.24214926927059247,0.04953958882168667,1.8876519518197028,11.53720140105515
0.2433145167723667,0.04895425204993259,1.8960004543228461,11.532730186514295
0.2444537405847038,0.04838412378341131,1.9041227826939924,11.52815952681497
0.24556755316311485,0.04782863252702085,1.9120248941575346,11.523496516143963
0.24665616101143042,0.04728686195530201,1.9197125682282672,11.5187659993061
0.24772058628124394,0.04675872893956787,1.9271914220486792,11.513953472537867
0.24876121511016994,0.04624357024418275,1.934466920703775,11.50907323464244
0.24977904081217303,0.04574132290729142,1.9415443903125464,11.504110546342242
0.2507741802814526,0.045251142341093155,1.9484290199984757,11.499090322461806
0.25173567129809404,0.04476238968869795,1.9551258514278125,11.494542053544361
0.2526976705207385,0.04430458710464593,1.9616397759048876,11.488934038673579
0.2536189630471621,0.04384046905872009,1.9679755505191574,11.484172081512435
0.2545427113035914,0.04340675315244553,1.9741378193245351,11.478325023086562
0.2554343457778979,0.04297280210924726,1.980131117676767,11.472983577195954
0.2563067950621612,0.042549031134949185,1.9859598708589934,11.467587537655687
0.25716070330221713,0.04213525288119868,1.9916283941312602,11.462132376618259
0.25799611207774853,0.0417308082395592,1.9971408911301565,11.456639772857875
0.2588140039006123,0.04133582954719521,2.002501451003353,11.45108882370623
0.2596146012459931,0.040949849393679925,2.007714053342546,11.445491835536075
0.2603981655121448,0.04057245688172826,2.012782587903651,11.439858741856108
0.26116561956031203,0.0402037720291825,2.0177108659733336,11.434169959537556
0.26191684195697806,0.03984311850785513,2.0225026143968816,11.428451286072923
0.26265252215734786,0.03949046729283323,2.027161461309855,11.422692377350366
0.2633736124485724,0.039145992545284246,2.0316909351209653,11.416871098148343
0.2640787219986812,0.03880814368630109,2.0360944755493526,11.411066370686582
0.264769722657911,0.03847781340134154,2.0403754438349413,11.405215167964322
0.26544717235396675,0.038154914448864666,2.0445371242532286,11.399311271848099
0.2661106540085666,0.03783867452370177,2.048582722086263,11.39338986626994
0.26676086046032343,0.03752913942457166,2.0525153634734106,11.387437919861044
0.267398043841704,0.037226050471521895,2.05633809799177,11.381460916106997
0.2680225965258264,0.03692926013383074,2.060053902578123,11.375457947710146
0.26863473475094357,0.03663851052603161,2.063665683392862,11.369435208194751
0.26923480764053925,0.03635364785703664,2.067176275438327,11.363392848273236
0.2698230458128962,0.03607444952113234,2.0705884419284173,11.357335637590639
0.2704002651233076,0.03580109313880678,2.0739048760191188,11.351243369190488
0.27095317646070444,0.03552450568661619,2.077128205996105,11.345686310195632
0.2715213461561974,0.03527028514886804,2.080260999272223,11.339021121204095
0.27206568458100416,0.03501247231145952,2.0833057627545575,11.332897545036529
0.27259981727040633,0.03475967371444758,2.086264939540467,11.326757814577197
0.2731238557534099,0.034511649427598205,2.089140908124311,11.320609602170855
0.27363849825086717,0.03426853922985048,2.0919359852241572,11.314435936179317
0.2741438274101336,0.034030098972872055,2.0946524315114967,11.308245120540773
0.2746394528613428,0.033795804756847715,2.097292454385457,11.302064580130043
0.2751263045416925,0.033565958978071964,2.0998582084491724,11.29586701526688
0.2756040196549393,0.03334007494875132,2.102351794930651,11.289678069256711
0.2760736848954473,0.033118554806554235,2.1047752623969846,11.283463650391937
0.2765348260005552,0.032900862000774474,2.107130607386995,11.27725337179228
0.27698768746919405,0.032686904810329695,2.1094197745760677,11.271047081180441
0.2774330588354258,0.032476916624071296,2.11164465781474,11.264822248237238
0.2778705332228759,0.03227043151195411,2.1138071029316476,11.2586047755901
0.2783006698823573,0.032067557054694655,2.1159089116607506,11.25238106894127
0.2787234554621948,0.03186807237364868,2.117951843336293,11.246160546265461
0.2791391306783338,0.03167191010571176,2.1199376132654897,11.239942103453902
0.2795477567683087,0.031478907231482695,2.1218678891019853,11.23373162487473
0.2799499185393663,0.03128920143379998,2.1237442912169056,11.227513718883381
0.28034571947549103,0.031102661197611185,2.1255684009865004,11.221292193601847
0.2807348522473073,0.030918932376761885,2.1273417748733467,11.215087124412253
0.28111779356541716,0.030738099204305064,2.1290659479454783,11.208887075396223
0.28149527891515996,0.03056038737980078,2.1307424144195743,11.202670202832799
0.28186677906656415,0.030385345000493832,2.132372585421747,11.196464645019063
0.2822322353602143,0.03021279608806304,2.133957777676938,11.190279193058757
0.2825923582487041,0.03004298742254013,2.135499223324117,11.184091707597284
0.2829327065926779,0.029868164935048087,2.136998097379316,11.178478523073789
0.2832964799579148,0.02971100888390096,2.138455529503972,11.171738470368725
0.2836409843409757,0.02954886015766128,2.139872607757047,11.165563632628082
0.2839802891955767,0.02938903140694408,2.1412503812665418,11.159403257357635
0.2843142413743502,0.029231334856759522,2.1425898623983772,11.15326823243571
0.2846438448095065,0.029076180716176694,2.1438920286195815,11.147123889084744
0.28496820413691976,0.02892300693582514,2.14515782415217,11.141009886912812
0.28528835976613215,0.028772243833799272,2.1463881614720375,11.134889911325889
0.28560387330033393,0.0286235718066707,2.147583922686176,11.128785365712421
0.2859150964374207,0.028477074463808427,2.1487459608104427,11.122686635385499
0.2862218803516278,0.028332587397662708,2.1498751009634476,11.116603473909803
0.2865243850052211,0.028190103764112753,2.1509721414879532,11.110533469408411
0.28682235723512195,0.02804941647161604,2.1520378550083246,11.10449009663989
0.28711695018867606,0.0279110084521414,2.153072989430839,11.098432266933852
0.2874070210178667,0.027774243280538496,2.1540782688922344,11.09240764776697
0.2876932535839146,0.027639378371625223,2.1550543946611036,11.086393109208322
0.28797565013960513,0.027506340943477856,2.1560020460782225,11.080391785377998
0.28825435115841724,0.027375126698621,2.1569218820668534,11.074401384160083
0.28852896423928287,0.02724548081643113,2.1578145425715367,11.068439979417063
0.2888004952531972,0.027117811649405764,2.158680649441008,11.062471892133376
0.28906827371275257,0.02699173670458856,2.1595208071698373,11.056525690492474
0.289332516700151,0.026867294938516022,2.160335603571925,11.050595798051827
0.2895931019066578,0.02674436857091528,2.161125610403597,11.044689539698563
0.2898505154599636,0.026623122646709668,2.1618913839458376,11.038790954580149
0.2901040947105002,0.026503194673843183,2.1626334655517017,11.0329277916968
0.29035268600587305,0.026385728868017936,2.1633523821637186,11.027146225668258
0.29060288083342495,0.02626849771870629,2.164048646804049,11.021198372447826
0.29084745723516636,0.026153330102617067,2.164722759040644,11.015360814345064
0.29108839241525764,0.026039354362502525,2.1653752054309137,11.009560626745802
0.291327229527142,0.02592721008060912,2.166006459945418,11.003741620453486
0.2915620364807036,0.025815985897662333,2.166616984372319,10.997978939837916
0.2917947015817616,0.025706472339536473,2.167207228704763,10.992203357689514
0.29202427695357597,0.025598201660405055,2.1677776315116937,10.986452661082497
0.292251023508948,0.02549124318034427,2.168328620293416,10.980718970642032
0.2924750572772288,0.025385602542236117,2.16886061182248,10.97499983547207
0.2926963176796644,0.02528120959193889,2.169374012449815,10.969299388110453
0.29291455081423645,0.025177913002380668,2.1698692183584014,10.963628929472597
0.293115488211747,0.025069571163053868,2.170346615836206,10.958523587525852
0.2933439882571868,0.02497532699854228,2.170806581558685,10.952308106924844
0.2935547942042446,0.024875785782101003,2.171249482865302,10.946676048509184
0.29374770039034803,0.0247709133587783,2.171675678028402,10.941634604155162
0.2939687641186006,0.02468009390303886,2.172085516513926,10.935469875784683
0.29417223474623594,0.024583998198579548,2.172479339233991,10.929887468271502
0.29437308001171675,0.02448890337357407,2.1728574787913337,10.924331356940575
0.2945716288182783,0.024394912260822178,2.1732202597158867,10.918790778604459
0.29476796267371874,0.02430202429983636,2.173567998693618,10.913264144744753
0.29494663441350827,0.02420386717748093,2.173901004787982,10.908324122714113
0.2951536141892738,0.02411927285030894,2.1742195796541237,10.902271980395227
0.2953430551349938,0.024029396692731218,2.1745240177461915,10.896804547489232
0.2955307422634185,0.023940682972048325,2.174814606517875,10.891339401765094
0.2957153255115183,0.023852555060426068,2.1750916266164886,10.88592754475627
0.29589775754581393,0.023765371259925772,2.175355352070904,10.880535046185532
0.2960805072682358,0.023680090474635436,2.175606050473343,10.875072406517676
0.29625946584743795,0.02359503655765298,2.1758439831555223,10.869691828609707
0.2964360995946968,0.023510772523554706,2.1760694053607597,10.864340491381704
0.2966111982905406,0.02342758518649794,2.176282566429172,10.8589905468107
0.2967849460682313,0.023345518748282067,2.17648370998502,10.853636390429559
0.29695596006112,0.023264003237941505,2.176673074102784,10.848329661438921
0.29710994832447357,0.02317744260045255,2.1768508914624056,10.843592877091753
0.297292698740282,0.023103673120437814,2.177017389497787,10.83775602330377
0.2974435098935525,0.02301903801764557,2.1771727905392244,10.833034249599871
0.2976221580573838,0.02294669387364531,2.1773173119507256,10.827250372486597
0.29778466606389675,0.02286959796864649,2.1774511662624,10.82200695107941
0.2979447135888976,0.022793024913409097,2.1775745612983353,10.816806621272534
0.29810328495988503,0.022717331098029918,2.1776877003002224,10.811614494211417
0.29826043888193887,0.0226425164067032,2.177790782046973,10.8064293391097
0.2984153749746069,0.022568256050959568,2.1778840009703915,10.801281005412195
0.2985690366072029,0.022494887310085074,2.1779675472673357,10.796136151908973
0.29872100863976647,0.022422232771343965,2.178041607008191,10.791010625768898
0.2988715310300032,0.02235036284030636,2.178106362242147,10.78589655230416
0.29902009921531303,0.022279069739643054,2.1781619910991323,10.780812912865319
0.29916731897740034,0.02220856107550829,2.1782086678887596,10.775738605054292
0.29931265611260255,0.022138620048086245,2.178246563196145,10.770693613161106
0.29945702455163997,0.022069566810904963,2.1782758439750967,10.76564576806982
0.29959955438056807,0.02200106214984675,2.1782966736382754,10.760627076532618
0.29974075580055126,0.021933276819927787,2.178309212146288,10.755619886812125
0.2998807783062258,0.021866247816555218,2.1783136160997962,10.750619529657154
0.30001890314916135,0.021799696405442267,2.178310038828941,10.745652435986665
0.3001555910090176,0.02173377488253633,2.178298630476752,10.740702721105526
0.3002907207547065,0.021668423698078768,2.1782795380786926,10.735775345485553
0.30042540223219955,0.021604026872811644,2.178252905639535,10.730831269237406
0.3005578066263931,0.021539910386796878,2.1782188742073716,10.725936451333617
0.30068893546635445,0.021476420238776436,2.178177581945333,10.721055685934305
0.30081934410823463,0.021413739149292163,2.1781291642010463,10.716169774832325
0.300948005810044,0.02135148631609093,2.178073753573957,10.711315885323177
0.30107567446505507,0.021289915723283752,2.1780114799806487,10.706467721441562
0.30120161407646506,0.021228753089706096,2.1779424707182984,10.701652003248492
0.30132645314658274,0.02116820715633883,2.1778668505261343,10.696846908461453
0.30144987205897134,0.02110815215712266,2.1777847416454326,10.692064307808744
0.30157252136867574,0.02104880264150185,2.177696263877464,10.687281639292676
0.3016937028010755,0.020989901333007262,2.17760153464007,10.68252416720915
0.30181393497022213,0.02093161633785526,2.177500669022622,10.677774008252607
0.30193287176794875,0.020873814867665118,2.177393779839405,10.67304389645594
0.3020502518337174,0.0208163951198365,2.1772809776816318,10.668343520345001
0.3021670559520866,0.020759683378056386,2.1771623709679115,10.663638691120054
0.3022823273643925,0.020703338488640116,2.177038065993606,10.658963644230816
0.30239655160524875,0.020647516020400155,2.1769081669786057,10.654301677798678
0.30251000603968625,0.02059229889432913,2.1767727761143223,10.649643464112565
0.3026221753262948,0.02053750015799605,2.1766319936107617,10.64500758105554
0.3027328475688366,0.020483037876229602,2.176485917742544,10.640401872897245
0.3028271693024201,0.020423893334298757,2.176334644893055,10.636348389285626
0.302951694663318,0.020375755877904893,2.1761782695971355,10.631212486146012
0.3030590783933898,0.02032264880826973,2.1760168845825176,10.626657370751017
0.30316641902867614,0.020270325637302855,2.1758505808100255,10.622082979758511
0.3032722195644176,0.02021827458788166,2.1756794475127124,10.617542176938029
0.30337711967651426,0.02016670005394174,2.1755035722338527,10.613012907299208
0.30348095591264945,0.020115538023430735,2.175323040864012,10.608501251081455
0.3035839069008455,0.020064838354646494,2.1751379376770816,10.604001314251203
0.3036855003010966,0.02001443590115799,2.174948345365358,10.599529934584455
0.3037864761434282,0.019964565871325446,2.1747543450737443,10.595061608962181
0.3038866873131784,0.01991517021161936,2.174556016433083,10.590601821935735
0.303985446900924,0.01986601521777902,2.1743534375926,10.586174833184971
0.3040834883444982,0.01981733270827096,2.1741466852515656,10.581755397803517
0.3041651070870013,0.019764010919487762,2.173935834690142,10.577889969545783
0.30427741241398437,0.019721347844681276,2.173720959799455,10.572940643146264
0.3043723909685835,0.019673735844920836,2.1735021331109703,10.568577349501663
0.3044668165094355,0.019626616176770306,2.173279425825015,10.564217102855752
0.30456107188596354,0.019580103162714996,2.173052907838811,10.559846941980975
0.30465349405841374,0.01953365408274424,2.172822647773606,10.555524822204564
0.3047457146243554,0.019487785485055715,2.1725887130011263,10.551194457993171
0.304836569981839,0.01944211715855079,2.1723511696690405,10.546896428147456
0.3049267578602205,0.019396864959405284,2.1721100827275523,10.5426068377719
0.30501631704037396,0.01935203352073075,2.171865515955738,10.538324620807149
0.3051049675032005,0.01930752663116225,2.171617531986954,10.534059716045029
0.30519310455342763,0.019263462254160132,2.17136619233299,10.52979872974241
0.30528025980756185,0.019219685338988164,2.1711115574077464,10.525558078956639
0.30536595546130024,0.019176039524561275,2.1708536865500028,10.521354455641594
0.30545138243213305,0.019132892708602176,2.170592638045723,10.517147045557852
0.30552035054096266,0.0190851797683394,2.170328469149589,10.513493221168359
0.305620188364472,0.019047678038675703,2.1700612361061165,10.50876464223267
0.30570355306027985,0.01900559251550412,2.169790994170149,10.50459060493355
0.305785956899025,0.0189637629712375,2.169517797626818,10.500437538235191
